grid,density
-0.5450042140984436,0.007158545793669922
-0.5426163794745081,0.007316535356854686
-0.5402285448505727,0.007494526628961643
-0.5378407102266373,0.0077037694824004
-0.5354528756027018,0.007911075445885452
-0.5330650409787664,0.008116444519416795
-0.5306772063548308,0.008349217298401915
-0.5282893717308954,0.008605009559090906
-0.52590153710696,0.008858477551835447
-0.5235137024830245,0.009109621276635537
-0.5211258678590891,0.009358440733491182
-0.5187380332351537,0.009604935922402379
-0.5163501986112182,0.009849106843369126
-0.5139623639872828,0.010090953496391422
-0.5115745293633474,0.010330475881469271
-0.5091866947394119,0.010567673998602672
-0.5067988601154765,0.010802547847791624
-0.504411025491541,0.011035097429036125
-0.5020231908676055,0.01126532274233619
-0.4996353562436701,0.011493223787691787
-0.4972475216197346,0.011718800565102955
-0.4948596869957992,0.011942053074569659
-0.49247185237186375,0.012162981316091918
-0.4900840177479283,0.012433819781174325
-0.4876961831239929,0.012727576852908908
-0.48530834850005744,0.013049618466443006
-0.482920513876122,0.01336856105605117
-0.4805326792521865,0.013684404621733412
-0.4781448446282511,0.013997149163489715
-0.47575701000431564,0.014306794681320088
-0.4733691753803802,0.014613341175224523
-0.47098134075644477,0.015001404323510369
-0.4685935061325093,0.015410162051614227
-0.46620567150857384,0.015855038752031356
-0.4638178368846384,0.016349332811795528
-0.46143000226070296,0.016854530817617817
-0.45904216763676753,0.017355080287551207
-0.4566543330128321,0.017850981221595705
-0.45426649838889666,0.01834223361975131
-0.45187866376496116,0.018835662211597964
-0.4494908291410257,0.01937207433753837
-0.4471029945170903,0.01990345054959913
-0.44471515989315485,0.020475291804926965
-0.44232732526921936,0.021070559077850902
-0.4399394906452839,0.021734931729051478
-0.4375516560213485,0.022407770526659848
-0.43516382139741305,0.02311658441886186
-0.4327759867734776,0.02388573795849704
-0.4303881521495422,0.024647918694298877
-0.42800031752560674,0.02540312662626736
-0.4256124829016713,0.02620364115366729
-0.4232246482777358,0.027048703965962238
-0.4208368136538004,0.027925889629838795
-0.41844897902986494,0.028814586871616126
-0.41606114440592945,0.029697497581001108
-0.413673309781994,0.03062441346696554
-0.4112854751580586,0.03155321415581312
-0.40889764053412314,0.03251751681086675
-0.4065098059101877,0.033525087469763334
-0.40412197128625227,0.034525705111128006
-0.40173413666231683,0.03552986027860358
-0.3993463020383814,0.0365662979597271
-0.39695846741444596,0.037618812571368905
-0.39457063279051047,0.03869020375897993
-0.39218279816657503,0.039751523118831636
-0.3897949635426396,0.04080277065092405
-0.3874071289187041,0.04184394635525722
-0.38501929429476867,0.042875050231831094
-0.38263145967083323,0.04389608228064569
-0.3802436250468978,0.04494844722367359
-0.37785579042296236,0.04600354675169126
-0.3754679557990269,0.047048187073958934
-0.3730801211750915,0.04808236819047656
-0.37069228655115605,0.0491472456188914
-0.3683044519272206,0.050214721233008165
-0.3659166173032851,0.05131632764778163
-0.3635287826793497,0.052420957528092504
-0.36114094805541425,0.053564163832650065
-0.35875311343147875,0.05471631458214611
-0.3563652788075433,0.055890637519418744
-0.3539774441836079,0.05708208172985308
-0.35158960955967244,0.05834119104059451
-0.349201774935737,0.05958751687764146
-0.34681394031180157,0.06082105924099392
-0.34442610568786614,0.062041818130651946
-0.3420382710639307,0.06333550521157798
-0.3396504364399952,0.06463909875061251
-0.33726260181605977,0.06592913405997104
-0.33487476719212433,0.06720561113965366
-0.33248693256818884,0.06848097182130025
-0.3300990979442534,0.0697847494110843
-0.32771126332031797,0.07109501977751302
-0.32532342869638253,0.07246092802210712
-0.3229355940724471,0.07387682575323162
-0.32054775944851166,0.07534150331322674
-0.3181599248245762,0.07684464085484884
-0.3157720902006408,0.0783318958988505
-0.31338425557670535,0.07980326844523178
-0.31099642095276986,0.0812587584939927
-0.3086085863288344,0.08273657961162678
-0.306220751704899,0.08424180264818962
-0.3038329170809635,0.08575780340482207
-0.30144508245702806,0.08725714690785259
-0.2990572478330926,0.08876546567111487
-0.2966694132091572,0.09031301300769144
-0.29428157858522175,0.09190736828913373
-0.2918937439612863,0.09350180055512668
-0.2895059093373509,0.09507841343354549
-0.2871180747134154,0.09663720692439029
-0.28473024008947995,0.09817818102766096
-0.2823424054655445,0.09970133574335746
-0.2799545708416091,0.10120667107147989
-0.27756673621767364,0.10275738115480268
-0.2751789015937382,0.10433563950883258
-0.2727910669698027,0.10594545677777367
-0.2704032323458673,0.10758950716080999
-0.26801539772193184,0.10925700058192532
-0.2656275630979964,0.11092226905658342
-0.26323972847406096,0.1125677812537137
-0.2608518938501255,0.11419353717331619
-0.25846405922619003,0.11589583679244325
-0.2560762246022546,0.11761890458251684
-0.25368838997831916,0.11937411924603779
-0.2513005553543837,0.12123297805355641
-0.2489127207304483,0.12322008507575062
-0.24652488610651285,0.12521636449027929
-0.24413705148257736,0.12726413434078832
-0.24174921685864192,0.12934604089387047
-0.2393613822347065,0.13142740808071993
-0.23697354761077105,0.13349171118509973
-0.23458571298683562,0.1356171216389225
-0.23219787836290012,0.1377335726761758
-0.2298100437389647,0.13983294547690794
-0.22742220911502925,0.1420561515863836
-0.2250343744910938,0.14425940507686538
-0.22264653986715838,0.14643631686397668
-0.22025870524322294,0.14868967875372474
-0.21787087061928745,0.151066451926884
-0.215483035995352,0.15352973511880463
-0.21309520137141658,0.15600820444746977
-0.21070736674748114,0.1584869729231026
-0.2083195321235457,0.1609851701330768
-0.20593169749961027,0.16349280018814752
-0.20354386287567477,0.16598556758439872
-0.20115602825173934,0.16853333184330554
-0.1987681936278039,0.17115163081832643
-0.19638035900386847,0.173777436396799
-0.19399252437993303,0.1764183339825623
-0.1916046897559976,0.17923727441348278
-0.1892168551320621,0.18219391095945453
-0.18682902050812666,0.1851560888798043
-0.18444118588419123,0.18812304531080465
-0.1820533512602558,0.19113774787640295
-0.17966551663632035,0.19417705522119552
-0.17727768201238492,0.19723598753570473
-0.17488984738844943,0.20034402980800498
-0.172502012764514,0.20343259802144983
-0.17011417814057855,0.20653542738246058
-0.16772634351664312,0.20960755432862171
-0.16533850889270768,0.21277280622830624
-0.1629506742687722,0.21592422719196008
-0.16056283964483675,0.2190839542393843
-0.15817500502090132,0.2222697671704523
-0.15578717039696588,0.22546618882991667
-0.15339933577303044,0.22869386883671108
-0.151011501149095,0.2319727236225371
-0.14862366652515951,0.23526036018926652
-0.14623583190122408,0.2385649700692501
-0.14384799727728864,0.24184848531380654
-0.1414601626533532,0.2451230878681478
-0.13907232802941777,0.24840949762215928
-0.13668449340548233,0.25172289235305634
-0.13429665878154684,0.25503283281943334
-0.1319088241576114,0.2583524821406836
-0.12952098953367597,0.2616773986498488
-0.12713315490974053,0.2650436339773532
-0.1247453202858051,0.26847731720070067
-0.12235748566186966,0.27188977525668845
-0.11996965103793417,0.27529329303597067
-0.11758181641399873,0.27873451071953875
-0.1151939817900633,0.28232079261104315
-0.11280614716612786,0.28603605531612497
-0.11041831254219242,0.2897536121229196
-0.10803047791825698,0.29344160878968745
-0.10564264329432149,0.29711624666377107
-0.10325480867038606,0.30074052539905805
-0.10086697404645062,0.3043412480543149
-0.09847913942251518,0.3079428441734195
-0.09609130479857975,0.31157945374009877
-0.09370347017464431,0.3152627593571578
-0.09131563555070882,0.31892199715311514
-0.08892780092677338,0.32256531107393566
-0.08653996630283795,0.32615594158801514
-0.08415213167890251,0.32973461691630596
-0.08176429705496707,0.333438679587508
-0.07937646243103158,0.3372012370831618
-0.07698862780709614,0.3410129718610101
-0.07460079318316071,0.344787865046048
-0.07221295855922527,0.3485636351361677
-0.06982512393528983,0.35236227489667366
-0.0674372893113544,0.3561126222841221
-0.0650494546874189,0.3598858121150255
-0.06266162006348347,0.3636544006145134
-0.06027378543954803,0.3674730172442338
-0.0578859508156126,0.3714465366645204
-0.05549811619167716,0.3753962613835257
-0.053110281567741724,0.3792855551359756
-0.05072244694380623,0.3831839540741482
-0.048334612319870796,0.3870936688370452
-0.04594677769593536,0.39098716612888096
-0.04355894307199992,0.39492572939956466
-0.041171108448064486,0.39884110463426337
-0.03878327382412905,0.4028838969610398
-0.03639543920019361,0.4069053245867905
-0.03400760457625818,0.41108539975435265
-0.03161976995232274,0.41530155489123
-0.029231935328387193,0.4195567194059885
-0.026844100704451757,0.42397682132989994
-0.02445626608051632,0.4283517657803749
-0.022068431456580884,0.4326573695705071
-0.019680596832645447,0.43703968201441773
-0.01729276220871001,0.4416963560574566
-0.014904927584774574,0.446430129812409
-0.012517092960839138,0.45110481819704473
-0.010129258336903701,0.4558979313013272
-0.007741423712968265,0.46072610127563307
-0.005353589089032829,0.46560576270129594
-0.002965754465097281,0.4705192286024839
-0.0005779198411618447,0.47546448506494243
0.0018099147827735917,0.4803890248678555
0.004197749406709028,0.48534237205682085
0.006585584030644465,0.490343253627563
0.008973418654579901,0.4955167777599566
0.011361253278515338,0.500733971013142
0.013749087902450774,0.5059708952546215
0.01613692252638621,0.5112609031317124
0.018524757150321647,0.5165443875693213
0.020912591774257083,0.5218060743405936
0.02330042639819252,0.5270292562072411
0.025688261022128067,0.5322366672230918
0.028076095646063504,0.5373986974040231
0.03046393026999894,0.5424846866030016
0.032851764893934376,0.5475673553352158
0.03523959951786981,0.5526330035660372
0.03762743414180525,0.5577424322270309
0.040015268765740686,0.5629218655643452
0.04240310338967612,0.5680536470922443
0.04479093801361156,0.5732229339320063
0.047178772637546995,0.5784350382296601
0.04956660726148243,0.5836690681411907
0.05195444188541787,0.5888206102125628
0.054342276509353415,0.5938803437001299
0.05673011113328885,0.5989165346058757
0.05911794575722429,0.6039600845883649
0.061505780381159725,0.6090676633686899
0.06389361500509516,0.6141872562410744
0.0662814496290306,0.6193087555143569
0.06866928425296603,0.6243546880486496
0.07105711887690147,0.6293923141997672
0.07344495350083691,0.6344485401865978
0.07583278812477234,0.6394557139340201
0.07822062274870778,0.6444281836523492
0.08060845737264333,0.6494108411461317
0.08299629199657876,0.6544752754579847
0.0853841266205142,0.6596420630185937
0.08777196124444964,0.664860389793424
0.09015979586838507,0.6700805443606774
0.09254763049232051,0.675255352194983
0.09493546511625595,0.6803671321372293
0.09732329974019138,0.6855140348750952
0.09971113436412682,0.6907186028422172
0.10209896898806226,0.695882259428726
0.10448680361199769,0.7010251908467752
0.10687463823593313,0.7061063378605976
0.10926247285986868,0.7111290455402477
0.11165030748380411,0.71607648940032
0.11403814210773955,0.721014073893414
0.11642597673167498,0.7260206134224768
0.11881381135561042,0.731063297814172
0.12120164597954586,0.7360527923899567
0.1235894806034813,0.7410222817786902
0.12597731522741673,0.7459172879870849
0.12836514985135217,0.7507402044610005
0.1307529844752876,0.7555101640537347
0.13314081909922304,0.7602750883723407
0.13552865372315848,0.7651676882972441
0.13791648834709402,0.7700281133935266
0.14030432297102946,0.7748304039941255
0.1426921575949649,0.7796057462803162
0.14507999221890033,0.78443853216631
0.14746782684283577,0.7891696120548902
0.1498556614667712,0.793785640680221
0.15224349609070664,0.798286618042301
0.15463133071464208,0.8026791050226625
0.15701916533857752,0.8070248285792176
0.15940699996251295,0.811307664658504
0.1617948345864484,0.815510467470029
0.16418266921038394,0.819612654737851
0.16657050383431937,0.8237354330054696
0.1689583384582548,0.8278064227116035
0.17134617308219025,0.8318087159494852
0.17373400770612568,0.8356983363909481
0.17612184233006112,0.839479716096645
0.17850967695399655,0.84318747089286
0.180897511577932,0.8467787685541411
0.18328534620186743,0.8503449001955049
0.18567318082580286,0.8539163833684356
0.1880610154497383,0.8574745596295028
0.19044885007367374,0.8609156428088177
0.19283668469760928,0.8642577166778347
0.19522451932154472,0.8675145361922123
0.19761235394548016,0.8706516559074529
0.2000001885694156,0.8736690758235528
0.20238802319335103,0.8766073694660845
0.20477585781728647,0.8794954616886338
0.2071636924412219,0.8822894512019542
0.20955152706515734,0.8851005467724234
0.21193936168909278,0.8879051188509467
0.2143271963130282,0.8906489292709577
0.21671503093696365,0.8933427378954337
0.2191028655608992,0.8959531479716063
0.22149070018483463,0.8985232746875594
0.22387853480877007,0.901039011915216
0.2262663694327055,0.903449226044826
0.22865420405664094,0.90581610864863
0.23104203868057638,0.9080937786321309
0.23342987330451181,0.9103209745996823
0.23581770792844725,0.9124672028672168
0.2382055425523827,0.9145223552525852
0.24059337717631812,0.9165710091508746
0.24298121180025356,0.9185604565792788
0.245369046424189,0.9204455486826044
0.24775688104812454,0.9222408886438431
0.25014471567206,0.9239686085366623
0.2525325502959954,0.9256169279225297
0.25492038491993085,0.9272221142841374
0.2573082195438663,0.9287553352468295
0.2596960541678017,0.9302317050358337
0.26208388879173716,0.931608570021038
0.2644717234156726,0.9329584965912459
0.26685955803960804,0.9342363202638952
0.26924739266354347,0.9354197054969743
0.2716352272874789,0.9364841656868957
0.27402306191141435,0.9374751963223407
0.2764108965353499,0.9383912656271769
0.27879873115928533,0.9393182632410192
0.28118656578322077,0.9401541693542115
0.2835744004071562,0.9409903167839322
0.28596223503109164,0.9417228115504187
0.2883500696550271,0.94237266075956
0.2907379042789625,0.9429192205176236
0.29312573890289795,0.9433646643782589
0.2955135735268334,0.9437253044847477
0.2979014081507688,0.9440053806520275
0.30028924277470426,0.9442268621701814
0.3026770773986398,0.9444025266633677
0.30506491202257524,0.9445833433230768
0.3074527466465107,0.9447450780819111
0.3098405812704461,0.9448168823792443
0.31222841589438155,0.9448390663658255
0.314616250518317,0.9448581232558074
0.3170040851422524,0.9448906644702837
0.31939191976618786,0.9448416696976155
0.3217797543901233,0.9447796826967649
0.32416758901405873,0.9446423223348486
0.32655542363799417,0.9444057665019672
0.3289432582619296,0.9440467992240114
0.33133109288586515,0.943642495302629
0.3337189275098006,0.9432030383842908
0.336106762133736,0.9426415573988716
0.33849459675767146,0.9420002776833742
0.3408824313816069,0.9412489538551789
0.34327026600554233,0.9404203183595231
0.34565810062947777,0.9394793826431072
0.3480459352534132,0.9384831615092855
0.35043376987734864,0.9374439837134932
0.3528216045012841,0.9363682833595327
0.3552094391252195,0.9352704003046229
0.35759727374915495,0.9341026192508464
0.3599851083730905,0.9328780737693895
0.36237294299702594,0.9315811088289668
0.3647607776209614,0.9302121515677927
0.3671486122448968,0.9287863196569033
0.36953644686883225,0.9272886476410542
0.3719242814927677,0.9257140023950466
0.3743121161167031,0.9240315165780172
0.37669995074063856,0.9222838800881918
0.379087785364574,0.9204795149729106
0.38147561998850943,0.9185946289563534
0.38386345461244487,0.9165892683846765
0.3862512892363804,0.9144634332578783
0.38863912386031585,0.9122171235759607
0.3910269584842513,0.9098503393389201
0.3934147931081867,0.9073630805467608
0.39580262773212216,0.9047743319013205
0.3981904623560576,0.9021560433846416
0.40057829697999303,0.8994721440880569
0.40296613160392847,0.8967507206864296
0.4053539662278639,0.8939528484203455
0.40774180085179934,0.8910756424385542
0.4101296354757348,0.8880795114136067
0.4125174700996702,0.8849644553455009
0.41490530472360576,0.8817828020017195
0.4172931393475412,0.8785464226790038
0.41968097397147663,0.8752451986302248
0.42206880859541207,0.8719095200093342
0.4244566432193475,0.868676475741499
0.42684447784328294,0.8654031929488252
0.4292323124672184,0.8620590019049101
0.4316201470911538,0.8587152104808679
0.43400798171508925,0.8553144853090463
0.4363958163390247,0.8517987088739739
0.4387836509629601,0.8482241763288411
0.44117148558689556,0.8445956045899112
0.4435593202108311,0.8409000866930894
0.44594715483476655,0.8371893919592978
0.448334989458702,0.8334299269107013
0.4507228240826374,0.8295569601108165
0.45311065870657286,0.8256071896241789
0.4554984933305083,0.8217029247152501
0.45788632795444373,0.8178318086818144
0.46027416257837916,0.8139186093336731
0.4626619972023146,0.8099784735150438
0.46504983182625004,0.8059657567114181
0.4674376664501855,0.8018972171785046
0.4698255010741209,0.7977896326203504
0.47221333569805635,0.7936247835852696
0.4746011703219918,0.7895107604184528
0.4769890049459272,0.7853467544274538
0.47937683956986266,0.7811137270957176
0.4817646741937981,0.7768640706532149
0.48415250881773375,0.7727904963248565
0.4865403434416692,0.768700914377994
0.4889281780656046,0.7645462820779485
0.49131601268954006,0.760376667348357
0.4937038473134755,0.7561787178777266
0.49609168193741093,0.7519754935453726
0.49847951656134637,0.7477302344069578
0.5008673511852818,0.7434327597062854
0.5032551858092172,0.73910267266517
0.5056430204331527,0.7347061773383164
0.5080308550570881,0.7302852117906464
0.5104186896810236,0.7258455481530207
0.512806524304959,0.721328279679123
0.5151943589288944,0.7167518337567748
0.5175821935528299,0.7121683880356993
0.5199700281767653,0.7075047041223482
0.5223578628007007,0.7028657487867751
0.5247456974246362,0.698148489975424
0.5271335320485716,0.6934343881103666
0.529521366672507,0.6886203427236967
0.5319092012964425,0.6837602158709533
0.5342970359203779,0.6788342276816725
0.5366848705443134,0.6738627682207782
0.539072705168249,0.6688647333178918
0.5414605397921844,0.6638076512629842
0.5438483744161199,0.6587011541940293
0.5462362090400553,0.6535455902204771
0.5486240436639908,0.6484366668805539
0.5510118782879262,0.6432854455473618
0.5533997129118616,0.6380507474223555
0.5557875475357971,0.632871890368351
0.5581753821597325,0.6277430950656383
0.5605632167836679,0.6227815397029337
0.5629510514076034,0.617786286659917
0.5653388860315388,0.6127689027978102
0.5677267206554742,0.6077255504048951
0.5701145552794097,0.602639657095748
0.5725023899033451,0.5974650749851097
0.5748902245272806,0.5922489665861431
0.577278059151216,0.5870061096450723
0.5796658937751514,0.5817879736085082
0.5820537283990869,0.576512743369932
0.5844415630230223,0.5711968006752537
0.5868293976469577,0.5657939785056931
0.5892172322708932,0.5603177419245376
0.5916050668948286,0.5548757749237385
0.593992901518764,0.5494762490867378
0.5963807361426997,0.5441330757952125
0.5987685707666351,0.5387202703668378
0.6011564053905706,0.5332711828241041
0.603544240014506,0.5278156342263532
0.6059320746384415,0.5223050038341835
0.6083199092623769,0.5167432744042522
0.6107077438863123,0.5111691360785046
0.6130955785102478,0.505597996410758
0.6154834131341832,0.500111271789712
0.6178712477581186,0.4946893494415172
0.6202590823820541,0.4892149730458293
0.6226469170059895,0.4837322274276295
0.625034751629925,0.47826388823192284
0.6274225862538604,0.47275930759255264
0.6298104208777958,0.46725706592051747
0.6321982555017313,0.4617682859149059
0.6345860901256667,0.4563491132784571
0.6369739247496021,0.45095359655062184
0.6393617593735376,0.44563307243522526
0.641749593997473,0.4403754632585059
0.6441374286214084,0.43516441774993436
0.6465252632453439,0.43004676323465124
0.6489130978692793,0.4249723570927691
0.651300932493215,0.4198224122426915
0.6536887671171504,0.4146661719904502
0.6560766017410858,0.40979483117631305
0.6584644363650213,0.40513269795139834
0.6608522709889567,0.400454146153755
0.6632401056128922,0.39578901174293907
