grid,density
-0.09571172249503906,0.015955464954362397
-0.09393426381134333,0.016506575014970774
-0.09215680512764758,0.017092225641296487
-0.09037934644395185,0.017748112417070732
-0.0886018877602561,0.01850914406840678
-0.08682442907656036,0.01928454426091043
-0.08504697039286462,0.020067280515678798
-0.08326951170916888,0.02089175596317821
-0.08149205302547313,0.021770664322184486
-0.0797145943417774,0.022643114999856523
-0.07793713565808165,0.02351428058598008
-0.07615967697438591,0.02443427363227297
-0.07438221829069017,0.025357342800323434
-0.07260475960699443,0.0263889410465941
-0.07082730092329868,0.027480212779076012
-0.06904984223960295,0.028613715562477927
-0.0672723835559072,0.0297398076561949
-0.06549492487221147,0.030989171233043216
-0.06371746618851573,0.032330330820903024
-0.06194000750481998,0.033670752471755966
-0.06016254882112424,0.03500088102609079
-0.0583850901374285,0.0363207164839075
-0.05660763145373276,0.037630258845206085
-0.05483017277003702,0.03899738718854623
-0.053052714086341275,0.04044866268723335
-0.051275255402645534,0.041951427044484485
-0.04949779671894979,0.04351956464534657
-0.04772033803525405,0.045077908892416634
-0.04594287935155831,0.046627978959735236
-0.04416542066786257,0.04825442577125777
-0.042387961984166826,0.04995169513699876
-0.040610503300471085,0.05181760625783836
-0.03883304461677534,0.05377637193630302
-0.0370555859330796,0.055773243810500674
-0.03527812724938386,0.05780500095414055
-0.03350066856568812,0.05990052424585344
-0.031723209881992384,0.062062477464469384
-0.029945751198296636,0.06426273903363318
-0.0281682925146009,0.06645132487103782
-0.026390833830905153,0.06862249162202715
-0.024613375147209418,0.07081742620078176
-0.02283591646351367,0.07304472637845522
-0.021058457779817935,0.07538003086603463
-0.019280999096122187,0.07777842352348145
-0.017503540412426452,0.08022043406262393
-0.015726081728730704,0.08264675687181709
-0.013948623045034969,0.0850532852646292
-0.01217116436133922,0.08744001924106039
-0.010393705677643486,0.08984372891153877
-0.008616246993947738,0.09230027439502435
-0.006838788310252003,0.09484370286173072
-0.005061329626556255,0.0974753139506033
-0.00328387094286052,0.10012482989899214
-0.0015064122591647716,0.10275217610103436
0.00027104642453096295,0.1053587059950272
0.0020485051082267114,0.1081042448501182
0.003825963791922446,0.11085570539590688
0.005603422475618194,0.11370682899758003
0.007380881159313929,0.11668222736782212
0.009158339843009677,0.119712642616417
0.010935798526705412,0.12294798626509694
0.01271325721040116,0.12628979649794636
0.014490715894096895,0.12978753703836543
0.016268174577792643,0.13337851011850338
0.018045633261488378,0.1371365913924162
0.019823091945184113,0.14097474033868784
0.02160055062887986,0.14485920762993112
0.023378009312575596,0.1488190854669509
0.025155467996271344,0.15279007860804816
0.02693292667996708,0.15681387075831085
0.028710385363662827,0.16104813465839243
0.030487844047358575,0.1653597283100453
0.032265302731054296,0.16965954883271483
0.034042761414750045,0.17409298105400892
0.03582022009844579,0.17863540955433377
0.03759767878214154,0.1832974187664861
0.03937513746583726,0.18803040372403207
0.04115259614953301,0.19275225613265945
0.04293005483322876,0.19746532827394186
0.04470751351692451,0.20216351684121397
0.04648497220062023,0.20685590614391539
0.04826243088431598,0.21155752851025864
0.050039889568011725,0.2162282840822182
0.051817348251707473,0.22090497909018428
0.053594806935403194,0.2255862660254088
0.05537226561909894,0.23038157617938423
0.05714972430279469,0.23524711525172462
0.05892718298649044,0.2400873494574612
0.06070464167018616,0.24498557161615533
0.06248210035388191,0.24991037675394365
0.06425955903757766,0.2549311897270858
0.0660370177212734,0.2599416460743823
0.06781447640496913,0.26493541618248545
0.06959193508866487,0.26994893903396244
0.07136939377236062,0.2749417006060795
0.07314685245605637,0.2799110284179895
0.07492431113975209,0.28496207836765125
0.07670176982344784,0.29000829319718774
0.07847922850714359,0.29518819961305054
0.08025668719083931,0.3003766853897048
0.08203414587453506,0.30556739171403574
0.0838116045582308,0.3107078202207592
0.08558906324192656,0.3158711250384172
0.08736652192562228,0.32108653481897614
0.08914398060931802,0.32629873375982477
0.09092143929301377,0.3315354171459357
0.09269889797670952,0.3367452859915375
0.09447635666040524,0.34200069532503935
0.09625381534410099,0.34730148069503297
0.09803127402779674,0.35269479173350643
0.09980873271149249,0.35815861061245513
0.10158619139518821,0.36360578441311225
0.10336365007888396,0.3690722859306672
0.1051411087625797,0.374490918218932
0.10691856744627545,0.3798533343646741
0.10869602612997117,0.3852154451125004
0.11047348481366692,0.39054377738273016
0.11225094349736267,0.3959306600203548
0.11402840218105842,0.4013925943753965
0.11580586086475414,0.40689938048566715
0.11758331954844989,0.4124057680194465
0.11936077823214564,0.41787193793361843
0.12113823691584139,0.42332047272172646
0.1229156955995371,0.42877851676136314
0.12469315428323285,0.4342895569277159
0.1264706129669286,0.43989069570695216
0.12824807165062435,0.44548752315705303
0.13002553033432007,0.4511147904596445
0.13180298901801582,0.45674268145585095
0.13358044770171157,0.46230908022126216
0.1353579063854073,0.467845974746655
0.13713536506910304,0.47334650787727073
0.1389128237527988,0.4788973952316076
0.14069028243649453,0.4845749018888902
0.14246774112019026,0.4902939547749155
0.144245199803886,0.4959614066208657
0.14602265848758175,0.5015623492277762
0.1478001171712775,0.5071894752138937
0.14957757585497322,0.5128582467891221
0.15135503453866897,0.5185629439452444
0.15313249322236472,0.5241991524206888
0.15490995190606044,0.5297668722154548
0.15668741058975622,0.5352661033295425
0.15846486927345194,0.5406968457629523
0.16024232795714766,0.5461019139900467
0.16201978664084343,0.5515174773481919
0.16379724532453915,0.5568637602490037
0.16557470400823493,0.5621407626924821
0.16735216269193065,0.5673796696471561
0.16912962137562637,0.57257894701631
0.17090708005932215,0.5777667807480027
0.17268453874301787,0.5829484039055113
0.1744619974267136,0.5880595589407039
0.17623945611040936,0.5931216584936367
0.17801691479410509,0.5982138143409039
0.17979437347780086,0.6032347102892001
0.18157183216149658,0.6081843463385244
0.1833492908451923,0.6130627224888766
0.18512674952888808,0.6179192742496061
0.1869042082125838,0.622763641813118
0.18868166689627952,0.6275702973043338
0.1904591255799753,0.6323447933588742
0.19223658426367102,0.6370880958591485
0.19401404294736674,0.641806673045489
0.19579150163106251,0.6465063812106553
0.19756896031475824,0.6511808080647828
0.199346418998454,0.6558341999488283
0.20112387768214973,0.6604135607156087
0.20290133636584545,0.6649709489347451
0.20467879504954123,0.6694629477627161
0.20645625373323695,0.6739654346215386
0.20823371241693267,0.6784301045724714
0.21001117110062845,0.682819555741156
0.21178862978432417,0.6871337881275933
0.21356608846801994,0.6914338320650023
0.21534354715171566,0.695658268830913
0.21712100583541138,0.699867793287269
0.21889846451910716,0.704055228713902
0.22067592320280288,0.7081737600366876
0.2224533818864986,0.7122964607791133
0.22423084057019438,0.7163837325993192
0.2260082992538901,0.7204310522343969
0.22778575793758588,0.7244619509211939
0.2295632166212816,0.7284454406174207
0.23134067530497732,0.7324053200296208
0.2331181339886731,0.7362868135529524
0.2348955926723688,0.7400899211874156
0.23667305135606453,0.7438146429330097
0.2384505100397603,0.7474609787897353
0.24022796872345603,0.7510289287575912
0.2420054274071518,0.7545535441914452
0.24378288609084753,0.7580468519816651
0.24556034477454325,0.7615026654578969
0.24733780345823903,0.7649386215141812
0.24911526214193475,0.7683449509773206
0.25089272082563047,0.7717475583777906
0.25267017950932624,0.7751394708968389
0.25444763819302196,0.7785561061111822
0.2562250968767177,0.7818950174901457
0.25800255556041346,0.7851988788535726
0.2597800142441092,0.7884354206424471
0.26155747292780496,0.7915900135475039
0.2633349316115007,0.7946626575687441
0.2651123902951964,0.7976533527061667
0.2668898489788922,0.8005885300428569
0.2686673076625879,0.8035372319402321
0.2704447663462836,0.806463053019516
0.2722222250299794,0.8093967579477227
0.2739996837136751,0.812302747063918
0.2757771423973709,0.81516192966493
0.2775546010810666,0.8179367880521591
0.27933205976476233,0.8206273222256051
0.2811095184484581,0.8232335321852676
0.2828869771321538,0.8257554179311484
0.28466443581584955,0.8282048483160919
0.2864418944995453,0.8306859044354358
0.28821935318324104,0.8331966129687449
0.2899968118669368,0.835622873100972
0.29177427055063254,0.8379632254661056
0.29355172923432826,0.8402176700641466
0.29532918791802404,0.8423862068950932
0.29710664660171976,0.8444688359589465
0.2988841052854155,0.8464655572557064
0.30066156396911126,0.8483763707853729
0.302439022652807,0.8502012765479463
0.3042164813365027,0.8519930219496971
0.3059939400201985,0.8537068079956377
0.3077713987038942,0.8553342903861579
0.30954885738758997,0.8568857088033324
0.3113263160712857,0.858401555431569
0.3131037747549814,0.8598307025160571
0.3148812334386772,0.8611731500567948
0.3166586921223729,0.8624288980537851
0.31843615080606863,0.8636558306797144
0.3202136094897644,0.8647988420019639
0.3219910681734601,0.8658547578921377
0.3237685268571559,0.8668235783502342
0.3255459855408516,0.8677623819553599
0.32732344422454734,0.8686532132559641
0.3291009029082431,0.8695612269919802
0.33087836159193884,0.8704306767532859
0.33265582027563456,0.8712673229427571
0.33443327895933034,0.8720156860351699
0.33621073764302606,0.872675766030524
0.33798819632672183,0.8732475629288174
0.33976565501041756,0.8737310767300535
0.3415431136941133,0.8741263074342291
0.34332057237780905,0.8745050341924906
0.3450980310615048,0.8748453092879729
0.3468754897452005,0.8750965095097408
0.34865294842889627,0.8752586348577938
0.350430407112592,0.8753316853321322
0.35220786579628777,0.8753558770566315
0.3539853244799835,0.8753115550162377
0.3557627831636792,0.8751777622138021
0.357540241847375,0.8749544986493234
0.3593177005310707,0.8746417643228044
0.3610951592147664,0.8742575386864778
0.3628726178984622,0.8738267842721928
0.3646500765821579,0.8733078205426157
0.36642753526585364,0.8727587772134503
0.3682049939495494,0.8721202631222432
0.36998245263324514,0.8713922782689946
0.3717599113169409,0.8705748226537039
0.37353737000063664,0.8697090368028181
0.37531482868433236,0.868774338733528
0.37709228736802813,0.8677505657905233
0.37886974605172385,0.8666856465100797
0.3806472047354196,0.8655444509580437
0.38242466341911535,0.8643336908729085
0.38420212210281107,0.8630744627515291
0.38597958078650685,0.8617253679797802
0.38775703947020257,0.8602864065576609
0.3895344981538983,0.8588366352098369
0.39131195683759407,0.8573712508766989
0.3930894155212898,0.8559108781758061
0.3948668742049855,0.8544648656371538
0.3966443328886813,0.8529419261077996
0.398421791572377,0.8513283281514208
0.4001992502560728,0.8496240717680159
0.4019767089397685,0.8478291569575872
0.4037541676234642,0.8459948478383656
0.40553162630715994,0.8440793216339716
0.4073090849908558,0.8421137564376009
0.4090865436745515,0.8400768936460833
0.4108640023582472,0.8379789258016811
0.41264146104194294,0.8358662528603756
0.41441891972563866,0.833704982125362
0.4161963784093344,0.8314859489705076
0.4179738370930302,0.8291750697236445
0.41975129577672593,0.8268122071300126
0.42152875446042165,0.8244394532816893
0.42330621314411737,0.8220204024670017
0.4250836718278131,0.8195801830702341
0.4268611305115089,0.8171510968131778
0.42863858919520464,0.8147130674239756
0.43041604787890037,0.8121812125011264
0.4321935065625961,0.809591713212139
0.4339709652462918,0.8069330106464858
0.4357484239299875,0.8042630295170183
0.43752588261368336,0.8015481215466146
0.4393033412973791,0.7988197308514238
0.4410807999810748,0.796037107465658
0.4428582586647705,0.7933521527985091
0.44463571734846624,0.7906119986108514
0.4464131760321621,0.7878422997502644
0.4481906347158578,0.7850322520730484
0.4499680933995535,0.7821263994205503
0.45174555208324924,0.7791825834007938
0.45352301076694496,0.7762265962502467
0.4553004694506408,0.7732170904385042
0.4570779281343365,0.7701284158814559
0.45885538681803223,0.7670619318132431
0.46063284550172795,0.764114786211129
0.46241030418542367,0.7612397249971125
0.4641877628691194,0.7583004500469869
0.4659652215528152,0.75536480676577
0.46774268023651094,0.75242492896193
0.46952013892020666,0.7494408898743677
0.4712975976039024,0.7463602540348652
0.4730750562875981,0.7432499590638497
0.47485251497129394,0.7401597850834671
0.47662997365498966,0.7370883206877549
0.4784074323386854,0.7340635104815912
0.4801848910223811,0.7310827140007787
0.4819623497060768,0.7280347224026115
0.48373980838977254,0.724959291521528
0.4855172670734684,0.7219326271684351
0.4872947257571641,0.718983923021357
0.4890721844408598,0.7160922786604562
0.49084964312455553,0.7131627368915688
0.49262710180825126,0.7102030119782712
0.4944045604919471,0.7071817113033284
0.4961820191756428,0.7041695313785168
0.49795947785933853,0.7011291183098488
0.49973693654303425,0.6981106926318595
0.50151439522673,0.6950408514220728
0.5032918539104259,0.6919078316614334
0.5050693125941215,0.6887595227679952
0.5068467712778173,0.6856239588325087
0.5086242299615129,0.6825752618436441
0.5104016886452087,0.6795839893338429
0.5121791473289043,0.6765945666826839
0.5139566060126002,0.6735929088579861
0.515734064696296,0.6706554295124045
0.5175115233799916,0.667868236105226
0.5192889820636875,0.6651481562868263
0.5210664407473831,0.6624274340709756
0.5228438994310789,0.6596271870103073
0.5246213581147747,0.6568408469544991
0.5263988167984703,0.654102959171301
0.5281762754821662,0.6514501323987069
0.5299537341658618,0.6488522852645822
0.5317311928495576,0.6462226355629237
0.5335086515332534,0.6435243971800629
0.535286110216949,0.640731541486902
0.5370635689006449,0.6378440684834389
0.5388410275843405,0.6348768729281805
0.5406184862680363,0.631888500390596
0.5423959449517322,0.6288718475940496
0.5441734036354278,0.6259566215641786
0.5459508623191236,0.6230392060676739
0.5477283210028192,0.6200799531797879
0.549505779686515,0.6170344438075084
0.5512832383702109,0.6140487894284037
0.5530606970539065,0.6110559711078405
0.5548381557376023,0.608104357794569
0.5566156144212979,0.605223237296115
0.5583930731049938,0.6023463730246279
0.5601705317886894,0.5995683940011368
0.5619479904723852,0.5969644182994867
0.563725449156081,0.5944757124774508
0.5655029078397766,0.5921357489618002
0.5672803665234725,0.5898982087780082
0.5690578252071681,0.5877908945716734
0.5708352838908639,0.585632208333123
0.5726127425745597,0.5835884102919108
0.5743902012582554,0.5815174957338222
0.5761676599419512,0.5794672313899033
0.5779451186256468,0.5775758970178816
0.5797225773093426,0.5759089866931061
0.5815000359930385,0.5742257409354603
0.5832774946767341,0.5726595026222415
0.5850549533604299,0.5712512351216527
0.5868324120441255,0.5699640861115208
0.5886098707278213,0.5689530195483087
0.5903873294115172,0.5678930820959455
0.5921647880952128,0.5668389798787589
0.5939422467789086,0.5657678743185048
0.5957197054626042,0.5646985350227764
0.5974971641463,0.5635754756697821
0.5992746228299959,0.56241078393057
0.6010520815136915,0.5613398350504532
0.6028295401973873,0.5602699775557243
0.6046069988810829,0.5593035627630538
0.6063844575647788,0.5583763689194353
0.6081619162484744,0.5574719303006114
0.6099393749321702,0.556667140350772
0.611716833615866,0.5559001593901989
0.6134942922995616,0.5551403112460118
0.6152717509832575,0.5543958867876583
0.6170492096669531,0.5536162924644229
0.6188266683506489,0.552876088070832
0.6206041270343448,0.5521680160281485
0.6223815857180404,0.5514109442766215
0.6241590444017362,0.550681226852403
0.6259365030854318,0.5500038846660876
0.6277139617691276,0.54943251248073
0.6294914204528235,0.5489541594139276
0.6312688791365191,0.5485203644206992
0.6330463378202149,0.5480208552689575
0.6348237965039105,0.547512231867987
0.6366012551876064,0.5471322172423528
0.6383787138713022,0.5467221330788985
0.6401561725549978,0.5463279852122481
0.6419336312386936,0.5459672095805455
0.6437110899223892,0.5456854013001815
0.6454885486060851,0.5454237976858021
0.6472660072897809,0.5452112125431382
0.6490434659734765,0.5451282831808125
0.6508209246571723,0.545092430647658
0.652598383340868,0.5450557835261077
0.6543758420245638,0.5449737751969009
0.6561533007082594,0.5448696944389575
0.6579307593919552,0.5447923651866474
0.659708218075651,0.5446840597701421
0.6614856767593467,0.5446164678507253
0.6632631354430425,0.5446937828254667
0.6650405941267381,0.5447913959236281
0.6668180528104339,0.5449762323736298
0.6685955114941298,0.5451216607145332
0.6703729701778254,0.5453358518938761
0.6721504288615212,0.5455653118204297
0.6739278875452168,0.5459058647232944
0.6757053462289127,0.5463046041712883
0.6774828049126085,0.5468067527975545
0.6792602635963041,0.5473630701449694
0.6810377222799999,0.5479520098537917
0.6828151809636955,0.5485991428561314
0.6845926396473914,0.5492355599421868
0.6863700983310872,0.5499449588719448
0.6881475570147828,0.5506430211719943
0.6899250156984786,0.5514662145822642
0.6917024743821742,0.5523321950005454
0.6934799330658701,0.5532164075441884
0.6952573917495659,0.5541120147871809
0.6970348504332615,0.5549919486129683
0.6988123091169574,0.5559026616881457
0.700589767800653,0.5568921438363299
0.7023672264843488,0.5578769820380365
0.7041446851680444,0.558790956229099
0.7059221438517402,0.559634066409518
0.7076996025354361,0.5604063125792924
0.7094770612191317,0.5611230922669282
0.7112545199028275,0.5618704541202189
0.7130319785865231,0.5626990023510992
0.714809437270219,0.5636353107537537
0.7165868959539148,0.5645508715524478
0.7183643546376104,0.5654766611346013
0.7201418133213062,0.5663751955204497
0.7219192720050018,0.5673098218613654
0.7236967306886977,0.5681727924149825
0.7254741893723935,0.5689641071813003
0.7272516480560891,0.5697996471942957
0.7290291067397849,0.5707031779010319
0.7308065654234805,0.5715859866047622
0.7325840241071764,0.5723967436328652
0.7343614827908722,0.5731630957149632
0.7361389414745678,0.5739173534687929
0.7379164001582637,0.5746777098391855
0.7396938588419593,0.5754633264591218
0.7414713175256551,0.5762415411600625
0.7432487762093509,0.5770054175019373
0.7450262348930465,0.5778053248584131
0.7468036935767424,0.5785947924676939
0.748581152260438,0.5793617896219311
0.7503586109441338,0.580071880608956
0.7521360696278296,0.5807417954844766
0.7539135283115252,0.5813725794243831
0.7556909869952211,0.58197459355892
0.7574684456789167,0.5825883668831721
0.7592459043626125,0.58313285975009
0.7610233630463081,0.5836080721596747
0.762800821730004,0.584053355050302
0.7645782804136998,0.5844516940944847
0.7663557390973954,0.584820168044946
0.7681331977810912,0.5851860561903534
0.7699106564647868,0.585562423382718
0.7716881151484827,0.5859072118525025
0.7734655738321785,0.5863085456031504
0.7752430325158741,0.586679503622415
0.77702049119957,0.5870438824842584
0.7787979498832656,0.5873867433220882
0.7805754085669614,0.5877083089619212
0.7823528672506572,0.5879964751895519
0.7841303259343528,0.5882865956060452
0.7859077846180487,0.5885441675157715
0.7876852433017443,0.5887340425214749
0.7894627019854401,0.5888562206231552
0.7912401606691359,0.588929880216751
0.7930176193528315,0.5890499947215173
0.7947950780365274,0.589264702959665
0.796572536720223,0.5895390877250304
0.7983499954039188,0.5898470129234775
0.8001274540876147,0.5903247666641251
0.8019049127713103,0.5908130736804281
0.8036823714550061,0.5914527085933122
0.8054598301387017,0.5920626233701991
0.8072372888223975,0.592685054547025
0.8090147475060931,0.593280257680704
0.810792206189789,0.5938069721337047
0.8125696648734848,0.5942651979060268
0.8143471235571804,0.5946549349976712
0.8161245822408763,0.5950171347481636
0.8179020409245719,0.5954359752051096
0.8196794996082677,0.5958423371559765
