grid,density
-0.5049787370027592,0.008668863006254636
-0.5027191413340901,0.008951996496292452
-0.500459545665421,0.009232555352412576
-0.4981999499967518,0.009510539574614991
-0.49594035432808276,0.00982137530152672
-0.49368075865941363,0.010153387329644449
-0.4914211629907445,0.010482395618191524
-0.4891615673220754,0.010808400167167949
-0.48690197165340626,0.011131400976573719
-0.48464237598473714,0.011451398046408838
-0.482382780316068,0.011768391376673305
-0.48012318464739895,0.01208238096736711
-0.4778635889787298,0.012411653785925524
-0.4756039933100607,0.012778936673248274
-0.4733443976413916,0.013142786715347422
-0.47108480197272246,0.01350320391222296
-0.46882520630405333,0.013860188263874907
-0.4665656106353842,0.01421373977030324
-0.4643060149667151,0.01456385843150798
-0.462046419298046,0.014958105352192963
-0.4597868236293769,0.015395207557034897
-0.45752722796070777,0.01585286979763054
-0.45526763229203865,0.016311842713541278
-0.4530080366233695,0.016820315007256746
-0.4507484409547004,0.017324067138789753
-0.4484888452860313,0.017823099108140308
-0.4462292496173622,0.0183174109153084
-0.4439696539486931,0.018807002560294047
-0.44171005828002396,0.019291874043097245
-0.43945046261135484,0.019791487746800097
-0.4371908669426857,0.020377895275662576
-0.4349312712740166,0.020966528960174768
-0.43267167560534747,0.02156804534366697
-0.4304120799366784,0.022238538916518318
-0.4281524842680093,0.022928497315569087
-0.42589288859934016,0.023626785324193683
-0.42363329293067103,0.02436319670879659
-0.4213736972620019,0.025092742402952294
-0.4191141015933328,0.025825332421889963
-0.41685450592466367,0.026670036659976016
-0.4145949102559946,0.027556281011286366
-0.4123353145873255,0.028473474539719462
-0.41007571891865635,0.029402563384524297
-0.40781612324998723,0.03032307011627011
-0.4055565275813181,0.031234994734956938
-0.403296931912649,0.032168461569683234
-0.40103733624397986,0.033122437329334335
-0.3987777405753108,0.03410235015909025
-0.39651814490664167,0.035097484007441934
-0.39425854923797254,0.03608317753142873
-0.3919989535693034,0.03707901176908201
-0.3897393579006343,0.03810511608912585
-0.3874797622319652,0.03912135097915184
-0.38522016656329605,0.04012771643915996
-0.382960570894627,0.04112421246915021
-0.38070097522595786,0.04211083906912262
-0.37844137955728874,0.043087596239077174
-0.3761817838886196,0.044054483979013875
-0.3739221882199505,0.04501150228893271
-0.3716625925512814,0.04596715791586135
-0.36940299688261224,0.046971480624551705
-0.3671434012139432,0.048017210048716084
-0.364883805545274,0.04905221183155676
-0.36262420987660493,0.05007648597307361
-0.3603646142079358,0.05109003247326674
-0.3581050185392667,0.05209285133213612
-0.3558454228705976,0.05308494254968171
-0.35358582720192844,0.05406630612590359
-0.35132623153325937,0.055036942060801654
-0.3490666358645902,0.055996850354376015
-0.3468070401959211,0.056946031006626575
-0.344547444527252,0.057978444635898616
-0.3422878488585829,0.059024357059274175
-0.3400282531899138,0.06011043782594346
-0.33776865752124463,0.0611922375298834
-0.33550906185257556,0.062295726170923126
-0.3332494661839064,0.06341268547398611
-0.3309898705152373,0.06454508591379611
-0.3287302748465682,0.06570325824592375
-0.32647067917789907,0.06690107082171838
-0.32421108350922995,0.06813021034393885
-0.3219514878405608,0.0693605289132851
-0.31969189217189176,0.07057711610173695
-0.3174322965032226,0.07177997190929437
-0.3151727008345535,0.07296909633595738
-0.3129131051658844,0.07419631093651473
-0.31065350949721526,0.07541703109957192
-0.30839391382854614,0.07664522935535532
-0.306134318159877,0.07791779347901204
-0.30387472249120795,0.0792141616995063
-0.30161512682253877,0.08055277183171129
-0.2993555311538697,0.08189865760928997
-0.2970959354852006,0.08328697403634922
-0.29483633981653146,0.08469957851592211
-0.29257674414786233,0.08609587698068284
-0.2903171484791932,0.08747586943063144
-0.28805755281052414,0.08888440408346299
-0.28579795714185496,0.09029089346377589
-0.2835383614731859,0.09168064772362364
-0.2812787658045168,0.09305366686300637
-0.27901917013584765,0.09444198620201458
-0.2767595744671785,0.09590016936282796
-0.2744999787985094,0.09734075919187028
-0.27224038312984034,0.09876375568914172
-0.26998078746117116,0.10016915885464221
-0.2677211917925021,0.10155696868837168
-0.26546159612383297,0.10292718519033023
-0.26320200045516384,0.10427980836051783
-0.2609424047864947,0.10561483819893439
-0.2586828091178256,0.10693227470558005
-0.25642321344915653,0.10828750107674699
-0.2541636177804874,0.10968821677453197
-0.2519040221118183,0.11114680551784638
-0.24964442644314916,0.11262893242406581
-0.24738483077448004,0.11413830745687648
-0.2451252351058109,0.1157003443788294
-0.2428656394371418,0.11727362512770198
-0.24060604376847267,0.11885453218867764
-0.2383464480998036,0.12043327370397737
-0.23608685243113448,0.12209102555265411
-0.23382725676246535,0.12372802042437327
-0.23156766109379623,0.12534356001344496
-0.2293080654251271,0.12693764431986904
-0.22704846975645798,0.12854869755602
-0.22478887408778886,0.13015902670580728
-0.2225292784191198,0.13177438072809644
-0.22026968275045067,0.13347095545198712
-0.21801008708178155,0.13520660882859617
-0.21575049141311242,0.13696461027265244
-0.2134908957444433,0.13878343306408245
-0.21123130007577418,0.14066614280528852
-0.20897170440710505,0.14258940039561877
-0.20671210873843598,0.14455810268520686
-0.20445251306976686,0.14660832748802244
-0.20219291740109774,0.14867443253118062
-0.19993332173242861,0.15075984721636346
-0.1976737260637595,0.1530465296528435
-0.19541413039509037,0.15534369511200485
-0.19315453472642125,0.1576254452007356
-0.19089493905775218,0.1599235856698824
-0.18863534338908305,0.16219211784897578
-0.18637574772041393,0.1644376775436876
-0.1841161520517448,0.16670637786414433
-0.18185655638307568,0.16894504078889444
-0.17959696071440656,0.17118169927847418
-0.17733736504573744,0.1734863431728991
-0.17507776937706837,0.17600471059765727
-0.17281817370839925,0.178608280437382
-0.17055857803973012,0.18126037602848594
-0.168298982371061,0.1839611316254839
-0.16603938670239188,0.1866271296645929
-0.16377979103372275,0.1893026450109984
-0.16152019536505363,0.19207710647340914
-0.15926059969638456,0.19486682341448558
-0.15700100402771544,0.19762825739848633
-0.15474140835904632,0.20045115615616138
-0.1524818126903772,0.20333729839741352
-0.15022221702170807,0.20622490210110309
-0.14796262135303895,0.20909158936272834
-0.14570302568436982,0.21196601371520268
-0.1434434300157007,0.21485732964627732
-0.14118383434703163,0.21770959696293346
-0.1389242386783625,0.22054638191342987
-0.1366646430096934,0.22341291540195787
-0.13440504734102426,0.22636323373144
-0.13214545167235514,0.22930850458984212
-0.12988585600368602,0.23227556399099275
-0.1276262603350169,0.23531085944117333
-0.12536666466634783,0.23843277705223856
-0.1231070689976787,0.2416437536300109
-0.12084747332900958,0.24486318616260255
-0.11858787766034046,0.24807379643941913
-0.11632828199167133,0.25123977972832906
-0.11406868632300221,0.2543611360293319
-0.11180909065433309,0.257437865342428
-0.10954949498566402,0.26053568875043526
-0.1072898993169949,0.2636581603009703
-0.10503030364832577,0.26682731333186377
-0.10277070797965665,0.27010725997552243
-0.10051111231098753,0.27344647781158216
-0.0982515166423184,0.2767809156934371
-0.09599192097364928,0.2800998718943376
-0.09373232530498021,0.2835097180818636
-0.09147272963631109,0.286891907668474
-0.08921313396764197,0.29027262891401534
-0.08695353829897284,0.2936761886105129
-0.08469394263030372,0.297128792752849
-0.0824343469616346,0.3005878352446425
-0.08017475129296547,0.3040506914222821
-0.0779151556242964,0.3075258765616431
-0.07565555995562728,0.31107692880184235
-0.07339596428695816,0.3147860297230294
-0.07113636861828904,0.31845608454058044
-0.06887677294961991,0.32214437034600774
-0.06661717728095079,0.325881166737819
-0.06435758161228167,0.32969807209371155
-0.0620979859436126,0.33355638429935286
-0.059838390274943476,0.3374099282272986
-0.05757879460627435,0.3413317319610672
-0.05531919893760523,0.3452791983825701
-0.053059603268936106,0.34925939331159445
-0.05080000760026698,0.35326342263930655
-0.04854041193159786,0.35732144991338577
-0.04628081626292879,0.3613588953353784
-0.04402122059425967,0.36550808946204155
-0.041761624925590546,0.3697087476364001
-0.03950202925692142,0.3738930094739634
-0.0372424335882523,0.3780261567599541
-0.034982837919583176,0.382203235631337
-0.03272324225091405,0.3864058045457048
-0.030463646582244985,0.390578773699674
-0.028204050913575862,0.39470773178215024
-0.02594445524490674,0.39889293095690914
-0.023684859576237616,0.40308799651116567
-0.021425263907568493,0.4072586286743791
-0.01916566823889937,0.411452087212634
-0.016906072570230246,0.4156768538910308
-0.014646476901561178,0.4198921722406792
-0.012386881232892055,0.4241689087777711
-0.010127285564222932,0.42838823728890646
-0.007867689895553809,0.43264841530708625
-0.005608094226884686,0.43690362254878484
-0.003348498558215618,0.4412723623178122
-0.0010889028895464392,0.44569887277697445
0.0011706927791226285,0.45016289919878716
0.003430288447791807,0.45462224242933985
0.005689884116460875,0.4590232594396994
0.007949479785130054,0.4634357029252741
0.010209075453799121,0.46804807686586486
0.012468671122468189,0.47270306260437267
0.014728266791137368,0.47742796170895185
0.016987862459806435,0.4821510719749682
0.019247458128475614,0.4868155265115878
0.021507053797144682,0.4916419735248986
0.02376664946581386,0.4964966913710538
0.026026245134482928,0.5013985490697149
0.028285840803151996,0.5063548556637857
0.030545436471821175,0.5112938933554121
0.03280503214049024,0.5162197037079954
0.03506462780915942,0.5211657346514973
0.03732422347782849,0.5260470723602465
0.03958381914649767,0.5312287380029684
0.041843414815166735,0.5363883023347261
0.0441030104838358,0.5414586126906694
0.04636260615250498,0.5464851760610665
0.04862220182117405,0.5516253685294444
0.05088179748984323,0.5567412184392517
0.053141393158512296,0.5618521972793822
0.055400988827181474,0.5669637192415192
0.05766058449585054,0.5720819565310332
0.05992018016451961,0.5771413157657345
0.06217977583318879,0.5821316455490138
0.06443937150185786,0.5870395498449494
0.06669896717052703,0.5919232137031574
0.0689585628391961,0.5967870327827413
0.07121815850786528,0.6016083270985342
0.07347775417653435,0.6064814335749068
0.07573734984520342,0.6113802074867613
0.0779969455138726,0.6162207158315509
0.08025654118254166,0.6210198911441265
0.08251613685121084,0.6258458321404781
0.08477573251987991,0.630706962371088
0.08703532818854909,0.6356735447726005
0.08929492385721816,0.6406150918025285
0.09155451952588722,0.645537588535933
0.0938141151945564,0.6503777308673576
0.09607371086322547,0.6552062121379826
0.09833330653189465,0.6601257581350559
0.10059290220056372,0.6650171716122799
0.1028524978692329,0.6698937456114985
0.10511209353790196,0.674729851917658
0.10737168920657103,0.6795816749829154
0.10963128487524021,0.6843674483375626
0.11189088054390928,0.6891375828413348
0.11415047621257846,0.6940336021280786
0.11641007188124752,0.6990301564510777
0.1186696675499167,0.7040190602418572
0.12092926321858577,0.7090542030219247
0.12318885888725484,0.714102624754482
0.12544845455592402,0.7192723190190007
0.12770805022459308,0.7244439227781095
0.12996764589326226,0.7295658908345196
0.13222724156193133,0.7346158072063483
0.1344868372306005,0.7397157586920975
0.13674643289926958,0.744731739878609
0.13900602856793864,0.7496891366853237
0.14126562423660782,0.7545390957323947
0.1435252199052769,0.7594275914816494
0.14578481557394607,0.7642505092491659
0.14804441124261514,0.7690415140474177
0.15030400691128432,0.773775417695358
0.15256360257995338,0.7784833311705049
0.15482319824862245,0.7830986258815805
0.15708279391729163,0.7876438296438746
0.1593423895859607,0.7921465998302701
0.16160198525462988,0.7966430764103875
0.16386158092329894,0.8011250251283581
0.16612117659196812,0.8055544155967409
0.1683807722606372,0.8100144490320298
0.17064036792930626,0.8144850685289813
0.17289996359797544,0.8189482980672541
0.1751595592666445,0.8233726928574536
0.17741915493531368,0.8277187740133728
0.17967875060398275,0.8320320598470724
0.18193834627265193,0.8364419765313745
0.184197941941321,0.8408250746048148
0.18645753760999006,0.8451657896112791
0.18871713327865924,0.8494344864165242
0.1909767289473283,0.8537146534148611
0.1932363246159975,0.8579155898295637
0.19549592028466656,0.8620471543048954
0.19775551595333574,0.8662193393686997
0.2000151116220048,0.8704881652084521
0.20227470729067387,0.8747308125404741
0.20453430295934305,0.8788926253738448
0.20679389862801212,0.882978204217959
0.2090534942966813,0.8870093548059176
0.21131308996535036,0.8911617453707816
0.21357268563401954,0.8952868172700866
0.2158322813026886,0.8993434241226983
0.2180918769713578,0.9034287551925165
0.22035147264002686,0.9074885459607218
0.22261106830869593,0.9114536721672227
0.2248706639773651,0.9153328912616593
0.22713025964603417,0.9191565239944332
0.22938985531470335,0.9228880197676174
0.23164945098337242,0.9265702737501342
0.2339090466520416,0.9301220796141516
0.23616864232071066,0.9335806016620012
0.23842823798937973,0.937012414684887
0.2406878336580489,0.9403514564831905
0.24294742932671798,0.943559621057345
0.24520702499538716,0.9466369084073485
0.24746662066405622,0.9496787070862398
0.2497262163327254,0.9526718495372981
0.25198581200139447,0.955532827447247
0.25424540767006354,0.9582616408160883
0.2565050033387327,0.9608664305034381
0.2587645990074018,0.9633981394405406
0.26102419467607096,0.9658820019554006
0.26328379034474003,0.9683807544969715
0.2655433860134092,0.9708660084397932
0.2678029816820783,0.973218184147193
0.27006257735074735,0.9754748549613004
0.2723221730194165,0.9776192858105056
0.2745817686880856,0.9796452729149485
0.27684136435675477,0.9816798799564111
0.27910096002542384,0.9836198416463906
0.281360555694093,0.9854698970215557
0.2836201513627621,0.9874091810880321
0.28587974703143115,0.9894072887039282
0.28813934270010033,0.9913930356427691
0.2903989383687694,0.9932869927196009
0.2926585340374386,0.9950771016863034
0.29491812970610765,0.9967700676917154
0.2971777253747768,0.9983995531346411
0.2994373210434459,0.9999762564712461
0.30169691671211496,1.0014830114766589
0.30395651238078414,1.0028973762710556
0.3062161080494532,1.0042353898480676
0.3084757037181224,1.0054512096444523
0.31073529938679145,1.0065301447375465
0.31299489505546063,1.0074721951273489
0.3152544907241297,1.0083291317197494
0.31751408639279877,1.0090576455763067
0.31977368206146795,1.0096710238175997
0.322033277730137,1.0102072071466166
0.3242928733988062,1.0106468074362214
0.32655246906747526,1.0110080923264646
0.32881206473614444,1.0112569817715324
0.3310716604048135,1.0114292969545338
0.3333312560734826,1.0115080707628779
0.33559085174215175,1.0114525345018486
0.3378504474108208,1.0112626881714448
0.34011004307949,1.0110250177434021
0.34236963874815907,1.0106858649065134
0.34462923441682825,1.010212402000251
0.3468888300854973,1.0096086249975893
0.3491484257541664,1.0089846423574886
0.35140802142283556,1.0083464077598094
0.3536676170915046,1.0076789025722197
0.3559272127601738,1.0069495879169903
0.3581868084288429,1.0060846758754287
0.36044640409751205,1.0051414379139758
0.3627059997661811,1.004064350130304
0.3649655954348502,1.002851235854647
0.36722519110351937,1.0015020950870042
0.36948478677218843,1.0000169278273774
0.3717443824408576,0.9984505531891846
0.3740039781095267,0.9968721647525012
0.37626357377819586,0.9952349131163886
0.3785231694468649,0.993516642362533
0.380782765115534,0.9918104079960636
0.3830423607842032,0.9901098112999961
0.38530195645287224,0.988305201914987
0.3875615521215414,0.986394353958681
0.3898211477902105,0.9843668643453584
0.39208074345887967,0.98230531109043
0.39434033912754873,0.9801109493273187
0.3965999347962178,0.9778372015213888
0.398859530464887,0.9754341169720966
0.40111912613355605,0.972934949489606
0.4033787218022252,0.9703779645491607
0.4056383174708943,0.9677181747819531
0.4078979131395635,0.9650278419094895
0.41015750880823254,0.962266981989571
0.4124171044769016,0.9594195962288815
0.4146767001455708,0.956523759726284
0.41693629581423985,0.9535851403048117
0.41919589148290903,0.9505805022705016
0.4214554871515781,0.9475238562051796
0.4237150828202473,0.9444976931098856
0.42597467848891635,0.9414380576343682
0.4282342741575854,0.9382996596717568
0.4304938698262546,0.935261174174621
0.43275346549492366,0.9321355073255541
0.43501306116359284,0.928895378830759
0.4372726568322619,0.9255739230052675
0.4395322525009311,0.9221250228008502
0.44179184816960015,0.9186078835324871
0.4440514438382692,0.9150230516301087
0.4463110395069384,0.9113107753488049
0.44857063517560747,0.907498807244951
0.45083023084427665,0.9036575967974209
0.4530898265129457,0.8999358433261886
0.4553494221816149,0.8962094830016201
0.45760901785028396,0.8924414122946046
0.45986861351895303,0.8886343577799796
0.4621282091876222,0.8847045790486088
0.4643878048562913,0.8807430396886093
0.46664740052496045,0.8768067963738811
0.4689069961936295,0.8727999302383921
0.4711665918622987,0.8686801840130222
0.47342618753096777,0.864536788623475
0.47568578319963684,0.8603737239015038
0.477945378868306,0.8561312408016692
0.4802049745369751,0.8517859722292318
0.48246457020564426,0.8473675522565475
0.48472416587431333,0.8428862070315118
0.4869837615429825,0.8382859995406067
0.4892433572116516,0.8335901879011718
0.49150295288032064,0.8288447015260688
0.4937625485489898,0.824105854433533
0.4960221442176589,0.8192855432304099
0.49828173988632796,0.8144112777443461
0.5005413355549972,0.8095302717598255
0.5028009312236663,0.8046631355786404
0.5050605268923354,0.7998141935088883
0.5073201225610044,0.7949449211890398
0.5095797182296735,0.7900171913352825
0.5118393138983428,0.78502482890909
0.5140989095670119,0.7799287513984619
0.5163585052356809,0.7747185317841483
0.51861810090435,0.7694595507645925
0.5208776965730193,0.764157502879766
0.5231372922416884,0.758834755946998
0.5253968879103574,0.7535573203671213
0.5276564835790265,0.7482768280913709
0.5299160792476956,0.7429299077024305
0.5321756749163649,0.7375050770461825
0.5344352705850339,0.7321112852594852
0.536694866253703,0.7266306478811259
0.5389544619223721,0.7210899597598768
0.5412140575910411,0.7155139002604816
0.5434736532597104,0.7099312386621518
0.5457332489283795,0.7043314320346447
0.5479928445970486,0.6987074419467655
0.5502524402657176,0.6930425376832134
0.5525120359343869,0.6873986215382258
0.554771631603056,0.6818641947872335
0.557031227271725,0.6762955289018926
0.5592908229403941,0.6707022811410516
0.5615504186090632,0.6651104957759919
0.5638100142777325,0.6595535005989879
0.5660696099464015,0.6539946977723888
0.5683292056150706,0.6483876745377745
0.5705888012837397,0.6428089346169489
0.5728483969524087,0.6372147160083728
0.575107992621078,0.6316162044010555
0.5773675882897471,0.6260354228592587
0.5796271839584162,0.6205006039469879
0.5818867796270852,0.6149102754728837
0.5841463752957545,0.6093972705712907
0.5864059709644236,0.6039053711738007
0.5886655666330927,0.5983668559197561
0.5909251623017617,0.5927479674576913
0.5931847579704308,0.5871428872097536
0.5954443536391001,0.5815367432050964
0.5977039493077692,0.5758839434441521
0.5999635449764382,0.5702705319801773
0.6022231406451073,0.5646871104068526
0.6044827363137764,0.559089650037085
0.6067423319824456,0.5534442437636902
0.6090019276511147,0.5477987678255505
0.6112615233197838,0.5421639077629207
0.6135211189884529,0.5364987746357022
0.6157807146571221,0.5309286068280508
0.6180403103257912,0.5252999571674744
0.6202999059944603,0.519745504498665
0.6225595016631293,0.5141700050277581
0.6248190973317984,0.5086936457735954
0.6270786930004677,0.5032180312909796
0.6293382886691368,0.49775390615185033
0.6315978843378058,0.49227490882559727
0.6338574800064749,0.4867284810109704
0.636117075675144,0.48118295746408035
0.6383766713438133,0.4758315268384671
